Wavenumber (cm^-1),0M,0.6M,0.8M,1M,1.2M,1.4M,1.8M
649.9039,0.002715258,-0.001406873,0.000598575,0.001411864,-0.001356958,0.000587558,-0.000284666
650.3861,0.002248986,-0.001467016,0.000760134,0.001267012,-0.001596683,0.000748384,-0.000828943
650.8682,0.001644805,-0.001624118,0.000891948,0.001123992,-0.001762768,0.000623617,-0.001167646
651.3503,0.001005956,-0.001820474,0.001000838,0.001037174,-0.001804724,0.000275092,-0.001241302
651.8325,0.000428546,-0.001974873,0.001098684,0.00103999,-0.001704338,-0.00019357,-0.001046792
652.3146,-2.04E-05,-0.00200238,0.001187232,0.001139695,-0.001475209,-0.000664438,-0.000638057
652.7967,-0.000316223,-0.001844568,0.001248752,0.001317925,-0.001153817,-0.001038972,-0.000115322
653.2788,-0.0004747,-0.001493634,0.001246309,0.001534887,-0.000786529,-0.001264472,0.000398683
653.761,-0.000543088,-0.001003401,0.001136704,0.001734274,-0.000419966,-0.00134342,0.000785026
654.2431,-0.000582984,-0.000479376,0.000886983,0.001849456,-9.68E-05,-0.001326847,0.000953508
654.7252,-0.000651955,-4.81E-05,0.000490798,0.001815519,0.000143432,-0.001289631,0.000856667
655.2073,-0.000787268,0.000183276,-2.76E-05,0.001584228,0.000264988,-0.001302583,0.000496673
655.6895,-0.000994536,0.00016256,-0.000621075,0.001140701,0.000238595,-0.001408308,-7.92E-05
656.1716,-0.001246198,-8.94E-05,-0.001236791,0.000517148,4.98E-05,-0.001610263,-0.000785922
656.6537,-0.001487219,-0.000486925,-0.001832264,-0.000207822,-0.000289329,-0.001875873,-0.001512655
657.1359,-0.00165228,-0.00090872,-0.002382699,-0.000922989,-0.000733216,-0.002151578,-0.002135324
657.6179,-0.001685327,-0.001238654,-0.002875583,-0.00151227,-0.001201479,-0.002379867,-0.002533321
658.1001,-0.001560508,-0.00140072,-0.003295747,-0.001887277,-0.001589497,-0.002512782,-0.002609208
658.5822,-0.001293464,-0.001377577,-0.003609655,-0.002009653,-0.001789712,-0.002518619,-0.002311974
659.0643,-0.000941931,-0.001206582,-0.00376209,-0.001900323,-0.001717701,-0.002382773,-0.001655536
659.5464,-0.000592656,-0.00096063,-0.003689838,-0.001627581,-0.001340753,-0.002107292,-0.000728353
660.0286,-0.0003378,-0.000720336,-0.003350051,-0.001282917,-0.000696076,-0.001714634,0.000315457
660.5107,-0.000250079,-0.000548209,-0.002750213,-0.000953419,0.000106998,-0.001249413,0.001285139
660.9928,-0.000362032,-0.000476042,-0.001967534,-0.000700133,0.000902478,-0.000781076,0.001996016
661.475,-0.00065828,-0.000502062,-0.001140973,-0.000550972,0.001506301,-0.000396053,0.002317812
661.957,-0.001079997,-0.000599098,-0.000439594,-0.00050594,0.001766543,-0.000180389,0.002208063
662.4392,-0.001540278,-0.000726178,-1.04E-05,-0.000548353,0.001615328,-0.000193826,0.001723236
662.9213,-0.00194316,-0.00083835,7.06E-05,-0.000655874,0.001102283,-0.000444345,0.000999314
663.4034,-0.002203595,-0.000897522,-0.000171357,-0.000804768,0.000395873,-0.00087663,0.000210062
663.8856,-0.002259097,-0.000875293,-0.000615176,-0.000968234,-0.000254079,-0.001378463,-0.000481104
664.3677,-0.002078703,-0.000758446,-0.001082113,-0.001112754,-0.00058553,-0.001809965,-0.000960827
664.8499,-0.001663477,-0.000548868,-0.001391601,-0.001198834,-0.000402895,-0.00204286,-0.001182572
665.3319,-0.001046356,-0.000262635,-0.001414277,-0.001186804,0.000359836,-0.001997327,-0.001158781
665.8141,-0.000288951,7.37E-05,-0.001104463,-0.001049264,0.001608602,-0.001664646,-0.000938314
666.2962,0.000521846,0.000430504,-0.000505613,-0.000782144,0.003107016,-0.001106764,-0.000579782
666.7783,0.001282856,0.000781758,0.000269468,-0.00041235,0.004537445,-0.00043766,-0.000132746
667.2604,0.001891343,0.001112734,0.001076868,9.19E-06,0.005597687,0.0002129,0.000366774
667.7426,0.002268427,0.001422843,0.001781512,0.000421828,0.006098453,0.000735909,0.000888751
668.2247,0.002383602,0.001723502,0.002291078,0.000778218,0.006028446,0.001073537,0.00139886
668.7068,0.002269139,0.002031093,0.002569203,0.001060459,0.00555193,0.001228528,0.001854231
669.189,0.002014468,0.002358222,0.00263166,0.001284306,0.004938999,0.001253736,0.002209473
669.6711,0.001742118,0.002706014,0.0025273,0.001486131,0.004461838,0.001227465,0.002432781
670.1532,0.00157056,0.003062765,0.00231922,0.001703106,0.004302427,0.001227828,0.002519109
670.6353,0.001577724,0.003403167,0.002067789,0.001949131,0.004501567,0.001311533,0.00249421
671.1174,0.001777497,0.003694097,0.001825706,0.002205625,0.004963412,0.001503881,0.002406819
671.5996,0.002115532,0.003900853,0.001634801,0.002423556,0.005500976,0.001797374,0.00231137
672.0817,0.002488261,0.003996912,0.001528105,0.002541712,0.005907451,0.002157729,0.002251532
672.5638,0.002778967,0.003973029,0.001529491,0.00251236,0.006024928,0.00253368,0.002250193
673.0459,0.002902534,0.003846722,0.00165484,0.002326566,0.005795172,0.002873259,0.002314806
673.5281,0.002842234,0.003667173,0.001912435,0.002028757,0.005271675,0.003139786,0.002450109
674.0102,0.002664129,0.003511966,0.002304523,0.001713952,0.004599141,0.003326557,0.002675749
674.4923,0.002498403,0.003472377,0.002825531,0.001505109,0.003963741,0.003459972,0.003031276
674.9744,0.002496006,0.00362917,0.003460577,0.001519838,0.003539692,0.00359251,0.003565396
675.4565,0.002773858,0.00402461,0.004179761,0.001832363,0.003443627,0.003782817,0.004312136
675.9387,0.003367775,0.004639093,0.004935343,0.002446413,0.003708712,0.004072109,0.00526194
676.4208,0.00421154,0.005383258,0.005662004,0.00328479,0.004281504,0.004463754,0.006344458
676.903,0.005152312,0.006114961,0.006289106,0.004206217,0.005041555,0.004919975,0.007437344
677.3851,0.005996408,0.006675109,0.00675536,0.005040344,0.005832,0.005374389,0.008396792
677.8672,0.006570179,0.006934571,0.007028286,0.005635451,0.00650002,0.005758747,0.00910207
678.3493,0.006775642,0.006836912,0.007116242,0.005902858,0.006932316,0.006032447,0.009496309
678.8314,0.006616471,0.006416666,0.007067944,0.005841853,0.007078096,0.006199543,0.009603017
679.3136,0.0061926,0.00579196,0.006958065,0.005539162,0.006957673,0.006306482,0.009515131
679.7957,0.005659758,0.005128428,0.0068629,0.005141049,0.006651017,0.00642268,0.009358645
680.2778,0.005174372,0.004590181,0.00683341,0.004806393,0.006271577,0.006607024,0.009246642
680.7599,0.004843114,0.004294048,0.006880527,0.004659034,0.005932984,0.006882774,0.0092436
681.2421,0.004692769,0.00428124,0.006972808,0.004750464,0.00571826,0.007226134,0.009351793
681.7242,0.004676297,0.00452046,0.007056257,0.00505541,0.005663863,0.00758068,0.009527026
682.2063,0.004706056,0.004934054,0.007080933,0.005492264,0.005762164,0.007887175,0.009712492
682.6885,0.00470201,0.005436031,0.007028692,0.00596618,0.005979955,0.008116253,0.00987554
683.1705,0.004634991,0.005968641,0.006927247,0.006412777,0.006283201,0.008288512,0.010029366
683.6527,0.004546165,0.006518998,0.00684681,0.006827261,0.006656534,0.0084732,0.010232022
684.1348,0.004536729,0.007116306,0.006879814,0.007264041,0.007108102,0.008763072,0.010562297
684.6169,0.004732625,0.007810794,0.007112712,0.007811812,0.007659601,0.009241764,0.011085664
685.0991,0.005236428,0.008644455,0.007596565,0.008547985,0.008324409,0.009949598,0.011821909
685.5812,0.006086409,0.009626788,0.008329845,0.0094985,0.009087922,0.010869962,0.012729163
686.0633,0.007236388,0.010721193,0.009251475,0.010612751,0.009896457,0.011931259,0.013708193
686.5454,0.008565667,0.01184805,0.010252609,0.011770031,0.010664636,0.013027051,0.014627531
687.0276,0.009909901,0.012899998,0.011195002,0.012810333,0.011295346,0.014041489,0.015356368
687.5096,0.011105955,0.013765451,0.01193974,0.013581195,0.011707854,0.014871932,0.01579956
687.9918,0.012033159,0.014353052,0.012376486,0.01398256,0.011860223,0.015442266,0.015922592
688.4739,0.01263794,0.014613373,0.012451935,0.013994967,0.01176196,0.015709699,0.015760055
688.9561,0.012938325,0.014552259,0.012189159,0.013682069,0.011470459,0.01566755,0.015409579
689.4382,0.013004996,0.014230452,0.01169103,0.013168715,0.011075167,0.01534638,0.015006507
689.9203,0.01293368,0.013752401,0.011123982,0.012604591,0.010676989,0.014815499,0.014690922
690.4025,0.012813915,0.013240817,0.010680313,0.012124584,0.010366609,0.014178198,0.01457097
690.8845,0.012709764,0.012807184,0.010528827,0.011819591,0.010210104,0.013559768,0.014693142
691.3667,0.012652861,0.01252367,0.010766396,0.011723018,0.010241097,0.013085502,0.015030163
691.8488,0.012649388,0.012406898,0.011388439,0.011815025,0.010459583,0.01285515,0.015490284
692.3309,0.012692068,0.01241986,0.012290265,0.012039184,0.010836512,0.0129198,0.01594757
692.813,0.012771357,0.012488855,0.013298597,0.01232411,0.011320621,0.013270164,0.016285525
693.2952,0.012878192,0.012533524,0.014228605,0.012605129,0.011850127,0.01384318,0.016437813
693.7773,0.013000674,0.01249582,0.014940535,0.012837717,0.012364709,0.014539833,0.016412288
694.2594,0.013113859,0.012356178,0.015378216,0.013003011,0.012816728,0.015249252,0.016286696
694.7416,0.013176359,0.012135394,0.01557279,0.013105168,0.013180858,0.015873057,0.016181541
695.2236,0.013133539,0.011880088,0.015613534,0.013164283,0.013456397,0.016340212,0.016216997
695.7058,0.012932558,0.011641957,0.015597842,0.013205962,0.013661859,0.016613208,0.016471945
696.1879,0.012543489,0.011460626,0.015586488,0.013254516,0.013826511,0.016690703,0.016961553
696.67,0.011980018,0.011358226,0.01558167,0.013328792,0.013977591,0.016608076,0.017639473
697.1522,0.011308505,0.011347141,0.015538225,0.013445535,0.014136342,0.01643969,0.018422884
697.6343,0.010639978,0.011442104,0.015399584,0.01362364,0.014316404,0.016297178,0.019225742
698.1165,0.010107079,0.011670807,0.015142275,0.013890623,0.014531817,0.016318913,0.019990235
698.5985,0.009831285,0.012071861,0.014804746,0.014284129,0.014805227,0.016647525,0.020700722
699.0807,0.009892327,0.012681009,0.014487356,0.014847793,0.015170309,0.017393492,0.021378498
699.5627,0.01030821,0.013510142,0.014321121,0.015618273,0.015664724,0.018596519,0.022063799
700.0449,0.011035034,0.014532669,0.014422308,0.016611725,0.016314743,0.020200984,0.022796064
700.527,0.011983554,0.015682232,0.014848584,0.017810001,0.017116187,0.022056305,0.023600232
701.0092,0.01304775,0.016869965,0.015581231,0.019156961,0.018024238,0.023949971,0.02448567
701.4913,0.014134274,0.018015514,0.016535526,0.020567814,0.018957039,0.025665801,0.025454382
701.9734,0.015181198,0.019074695,0.017597198,0.021947847,0.019816614,0.027044745,0.026508107
702.4556,0.016163572,0.020057094,0.018664059,0.023219051,0.020521022,0.028029309,0.027651453
702.9376,0.017084884,0.021018921,0.019681193,0.024343248,0.02103516,0.028673605,0.028887097
703.4198,0.017960128,0.022039285,0.020650051,0.025334172,0.021387016,0.029115037,0.030205446
703.9019,0.018801925,0.023186416,0.021618324,0.026255338,0.021663895,0.029522848,0.031580124
704.384,0.019612794,0.024489515,0.022652498,0.027199455,0.021984558,0.03004458,0.032970749
704.8661,0.02038882,0.025928849,0.023811604,0.028262403,0.022463001,0.030770423,0.034337449
705.3483,0.021131326,0.027446451,0.02512924,0.029513134,0.023172789,0.031726103,0.035658823
705.8304,0.021864741,0.02897579,0.026615093,0.030979564,0.024132578,0.032895421,0.036947715
706.3125,0.022652684,0.030478076,0.028267913,0.032648435,0.025313623,0.03425458,0.038256008
706.7947,0.023606186,0.031969029,0.030094178,0.034484266,0.02666752,0.035803469,0.039666038
707.2768,0.024884167,0.033530682,0.032123115,0.036458828,0.028163563,0.037580776,0.041274707
707.7589,0.026681398,0.035303484,0.034414334,0.038584363,0.029819616,0.039660805,0.043177697
708.241,0.029207762,0.037464441,0.037053149,0.040936766,0.031716379,0.042137481,0.045462207
708.7231,0.032663167,0.040204059,0.040146514,0.043665062,0.033992338,0.045109912,0.048210268
709.2053,0.037215045,0.043709254,0.043817394,0.046982892,0.036822924,0.048676654,0.051513634
709.6874,0.042983723,0.048158822,0.048207483,0.051148604,0.040395972,0.052943273,0.055487193
710.1696,0.050044185,0.053732218,0.05348199,0.056436626,0.044892937,0.058036524,0.06027764
710.6516,0.058442131,0.060619173,0.059834963,0.063110867,0.05048051,0.064112831,0.066057068
711.1338,0.068220822,0.069022724,0.06748311,0.071399327,0.057306511,0.071350849,0.073001569
711.6159,0.079441328,0.079138465,0.076640698,0.081466729,0.065491364,0.079919151,0.081256378
712.098,0.092180095,0.09110586,0.087470432,0.093380156,0.07510336,0.089923618,0.09089226
712.5801,0.106484159,0.104928075,0.100010433,0.107062036,0.086110839,0.101342887,0.101858547
713.0623,0.122275578,0.120367257,0.114081066,0.122221573,0.098311668,0.113957191,0.113933083
713.5444,0.139214547,0.136837255,0.129192811,0.138282331,0.111259767,0.127294591,0.126680883
714.0265,0.156557647,0.153332413,0.144480989,0.154326884,0.124217485,0.140608076,0.139434315
714.5087,0.173067444,0.168444811,0.15871293,0.169104023,0.136172507,0.152911078,0.151315995
714.9908,0.187060183,0.180527266,0.170414049,0.181148308,0.145954129,0.163090879,0.161333266
715.4729,0.196654945,0.188012259,0.178131583,0.189032905,0.152453708,0.170098129,0.16854248
715.955,0.200218408,0.189815872,0.180782562,0.191705906,0.154893739,0.173177301,0.172258224
716.4371,0.196864562,0.185665071,0.177968879,0.188798343,0.153051968,0.17206153,0.17223737
716.9193,0.186778351,0.176189608,0.170112757,0.180756578,0.147338564,0.167060007,0.168768857
717.4014,0.171185471,0.162732584,0.158349464,0.168739675,0.138697517,0.159000441,0.162624989
717.8835,0.151993947,0.146987542,0.14423444,0.154333038,0.128378334,0.149053345,0.154901498
718.3657,0.13129435,0.13062132,0.129395147,0.139205626,0.117675497,0.138501147,0.146801222
718.8478,0.11093062,0.11500564,0.115242346,0.124824211,0.107712747,0.128523197,0.139432761
719.3299,0.092246913,0.101089723,0.102801544,0.112282612,0.099314568,0.120039684,0.133666644
719.812,0.07601388,0.089394499,0.092660273,0.102243491,0.092964631,0.113636629,0.130067823
720.2942,0.062488379,0.080086428,0.085012294,0.094973589,0.088838934,0.109567873,0.12889764
720.7762,0.051544114,0.073085988,0.079756351,0.090428395,0.086879493,0.107817475,0.13016537
721.2584,0.042829813,0.068178265,0.07662026,0.088362058,0.086887949,0.108197701,0.133704714
721.7405,0.035911574,0.065101108,0.075274075,0.088425922,0.088608769,0.110449589,0.139249254
722.2227,0.030377768,0.063595379,0.075411975,0.090240095,0.091786823,0.114318645,0.146487363
722.7048,0.025897169,0.063425807,0.076790647,0.093430681,0.096191287,0.119588922,0.155093088
723.1869,0.022232464,0.064375994,0.079227163,0.097639419,0.10161286,0.126073427,0.164732766
723.669,0.019225673,0.066240433,0.082571132,0.102519543,0.107843209,0.133574055,0.175062748
724.1511,0.016771718,0.068817147,0.086668301,0.107735275,0.114656105,0.141837254,0.185724304
724.6333,0.014795374,0.071910763,0.091334075,0.112974872,0.121798224,0.150528496,0.19634847
725.1154,0.013235447,0.075335607,0.096343462,0.117975213,0.128995524,0.159243111,0.206565626
725.5975,0.012037697,0.078918585,0.101438883,0.122546215,0.135970639,0.167550412,0.216020751
726.0797,0.011151643,0.082494272,0.106351097,0.126584164,0.142465579,0.175057489,0.224389543
726.5618,0.010525002,0.085896572,0.11082183,0.130059763,0.148255134,0.181464787,0.23139198
727.0439,0.010099872,0.088954782,0.114626415,0.132985518,0.153153726,0.186592641,0.236807325
727.526,0.009810821,0.09150024,0.117589488,0.135373514,0.157011146,0.190370387,0.240490333
728.0082,0.009589418,0.093385333,0.119595943,0.137201005,0.159707342,0.192794607,0.242380154
728.4902,0.009373764,0.094507136,0.120592956,0.138396927,0.161150491,0.193882341,0.242505379
728.9724,0.009121164,0.094826896,0.12059036,0.138858293,0.161287476,0.193641744,0.240975286
729.4545,0.008816937,0.09437456,0.119652432,0.138486714,0.160121446,0.192073079,0.237959022
729.9366,0.008475115,0.093236069,0.11788836,0.13723072,0.157731608,0.189198039,0.233657977
730.4188,0.008130768,0.091528941,0.115438497,0.13511346,0.154280221,0.185096235,0.22828241
730.9009,0.007824844,0.089375144,0.112459395,0.132235268,0.150001341,0.179926647,0.222033573
731.383,0.007590668,0.086884937,0.109108883,0.128748533,0.145168583,0.17392064,0.215100016
731.8651,0.007444562,0.084149637,0.105530897,0.124820161,0.140049629,0.167347588,0.207661342
732.3473,0.007384009,0.081245016,0.101843058,0.120591877,0.134862467,0.160466596,0.199893665
732.8293,0.007393405,0.07823539,0.098125624,0.116162084,0.129745519,0.153485471,0.191969989
733.3115,0.007450744,0.075174973,0.094415294,0.11158607,0.124752304,0.146544386,0.184053926
733.7936,0.007534436,0.072101512,0.090707489,0.106896723,0.119870025,0.139724688,0.176288104
734.2758,0.007623892,0.069031984,0.086965279,0.102129336,0.115053844,0.133077108,0.168784
734.7579,0.007700003,0.065962396,0.083143857,0.097342861,0.110268453,0.126656049,0.161623255
735.24,0.007740872,0.062878575,0.079216279,0.092622449,0.105518253,0.120542225,0.154867974
735.7222,0.007724366,0.05977824,0.075204602,0.088073097,0.100868284,0.114851171,0.148582271
736.2042,0.007629239,0.056693646,0.071197791,0.083799395,0.09644117,0.109720718,0.142854756
736.6864,0.007440938,0.053705565,0.067353033,0.079889973,0.092402243,0.105288013,0.137809726
737.1685,0.007156582,0.050938177,0.063870322,0.07640363,0.088929628,0.101663372,0.133599825
737.6506,0.006786859,0.048533682,0.060951104,0.073367383,0.086181331,0.098907693,0.130377646
738.1328,0.006357192,0.046613745,0.05874391,0.070780721,0.084259555,0.097018086,0.128252179
738.6149,0.005904849,0.04524052,0.057300889,0.068623278,0.083183387,0.095924256,0.127241316
739.097,0.005477626,0.044393329,0.056555295,0.066861623,0.082871222,0.095494136,0.12723683
739.5791,0.00513148,0.043968455,0.056329918,0.065452497,0.083141202,0.095544543,0.127989556
740.0613,0.004926495,0.043802491,0.056374653,0.064338295,0.083727939,0.095852314,0.129123349
740.5433,0.004921786,0.04371096,0.056422058,0.063443729,0.084319767,0.096172185,0.130177299
741.0255,0.005164605,0.043527227,0.056240866,0.06267044,0.084604117,0.096250717,0.13066796
741.5076,0.005678586,0.043132258,0.055676032,0.061900958,0.084320314,0.095850028,0.130165259
741.9897,0.006452004,0.042465776,0.054659122,0.061008814,0.083299063,0.094772918,0.128361999
742.4719,0.007433805,0.041523854,0.053199098,0.059880632,0.081485651,0.092891743,0.125128951
742.954,0.00854061,0.040347081,0.05135757,0.058440496,0.078937661,0.090173154,0.120537438
743.4362,0.009672716,0.039006922,0.049224883,0.056672716,0.075802629,0.086689756,0.114843425
743.9182,0.010738511,0.037595564,0.046906066,0.054634049,0.072284191,0.08261698,0.108441658
744.4004,0.011675521,0.036217521,0.04451849,0.052451936,0.068609404,0.078209314,0.101794811
744.8825,0.012463372,0.034980924,0.04219297,0.050301391,0.065001168,0.073763533,0.095358202
745.3646,0.013122168,0.033985678,0.040072883,0.048373108,0.061661505,0.069571968,0.089510362
745.8467,0.013700269,0.033309717,0.038302661,0.046831539,0.058756639,0.065878396,0.084505577
746.3289,0.014252888,0.032994223,0.037007023,0.045779241,0.056405167,0.062840718,0.080451879
746.811,0.014824279,0.033037169,0.03626852,0.04523589,0.054665219,0.060512873,0.077321927
747.2931,0.015437137,0.033395279,0.036108923,0.045138664,0.0535249,0.058847583,0.074990883
747.7753,0.016091966,0.033994862,0.036484109,0.045362288,0.052898988,0.057717588,0.073289147
748.2573,0.016776824,0.034748294,0.037294874,0.045755358,0.052641356,0.05695399,0.072054667
748.7395,0.017476722,0.035569397,0.038403638,0.046175747,0.052567303,0.056386057,0.071166976
749.2216,0.018181811,0.036383105,0.039658373,0.04651969,0.052490995,0.055878407,0.070555649
749.7037,0.018887764,0.037131767,0.040911538,0.046734079,0.052263993,0.055353907,0.070186509
750.1859,0.019588944,0.037775907,0.042036113,0.046812902,0.051807698,0.054802204,0.07003562
750.668,0.020270847,0.038295717,0.042935795,0.046782328,0.051130092,0.054270722,0.070067672
751.1501,0.0209048,0.038693114,0.043554591,0.046685208,0.050319494,0.053845124,0.070229407
751.6322,0.021449314,0.038991991,0.043883486,0.046567366,0.04951749,0.053621644,0.070461054
752.1144,0.021857792,0.039233527,0.043963031,0.046473223,0.048880605,0.053679743,0.070718493
752.5965,0.022094529,0.039468833,0.043880982,0.046446827,0.048541026,0.054061108,0.070994922
