Wavenumber (cm^-1),0M,0.6M,0.8M,1M,1.2M,1.4M,1.8M
400.1635,0.075088576,0.105400649,0.169803254,0.121156628,0.163367224,0.151018195,0.308196972
400.6456,0.058626783,0.088940683,0.155476641,0.120485042,0.14074474,0.158891695,0.285195792
401.1277,0.038157262,0.073724824,0.138064556,0.119213557,0.117803811,0.166669597,0.258493581
401.6098,0.016085621,0.061020218,0.118889496,0.116732507,0.097927277,0.174188144,0.228872201
402.0919,-0.004850622,0.051901574,0.099601627,0.113147057,0.084009828,0.181431854,0.198691592
402.5741,-0.022172486,0.047086239,0.082071631,0.109374919,0.078115731,0.188142853,0.171525778
403.0562,-0.034118968,0.046813494,0.068142217,0.106948564,0.081221552,0.193510463,0.151204132
403.5383,-0.039853108,0.050859917,0.059287139,0.107534684,0.093076803,0.196255885,0.14071212
404.0204,-0.039381042,0.058714058,0.056361359,0.112425983,0.112282607,0.195262214,0.141429481
404.5026,-0.033298896,0.069791721,0.059467384,0.122158321,0.136567437,0.190410095,0.15285109
404.9847,-0.022565449,0.083527214,0.067952894,0.136354523,0.163186583,0.183001739,0.172682395
405.4668,-0.008441565,0.099238497,0.080436709,0.153705042,0.189283599,0.175402381,0.197199585
405.9489,0.007413971,0.115878363,0.094913381,0.172095473,0.212202885,0.170121475,0.221891145
406.4311,0.022891252,0.131894115,0.10899009,0.188888662,0.229737395,0.168870967,0.242429379
406.9132,0.03558683,0.14535658,0.120318316,0.201408663,0.24035342,0.171997163,0.255753109
407.3953,0.043263598,0.154414897,0.127130039,0.207541764,0.243361179,0.178355894,0.260786253
407.8774,0.044493811,0.157923478,0.12871489,0.206302654,0.239022361,0.185582193,0.258425064
408.3596,0.039214675,0.155954863,0.12561846,0.198131823,0.228556384,0.190700696,0.250928955
408.8417,0.028910915,0.149944264,0.119510493,0.184851968,0.214045954,0.19108557,0.241148866
409.3238,0.016278534,0.142330065,0.112720111,0.169248662,0.198163816,0.185565428,0.23189371
409.8059,0.004447917,0.135767606,0.1075843,0.154386735,0.183700168,0.175144827,0.225458635
410.2881,-0.003993863,0.132161125,0.105718299,0.142787458,0.172902113,0.162699935,0.223216739
410.7702,-0.007798194,0.131897755,0.107491518,0.135741086,0.16684167,0.151682862,0.22532351
411.2523,-0.007331391,0.133662934,0.11194004,0.133036426,0.165125114,0.144627991,0.230710425
411.7344,-0.004180436,0.135021254,0.117242783,0.133287603,0.166147402,0.142332052,0.237451462
412.2166,-0.000319066,0.133495803,0.121503022,0.134665077,0.167774056,0.143948038,0.243393098
412.6987,0.002751211,0.127638154,0.123477091,0.135713678,0.168157759,0.147671831,0.246778405
413.1808,0.004512748,0.117604558,0.122929119,0.13588224,0.166340252,0.151603834,0.246652508
413.6629,0.005453067,0.105054932,0.120579399,0.135631891,0.162489241,0.154483293,0.243000481
414.1451,0.006666371,0.092517857,0.117715657,0.136104422,0.157684009,0.156093514,0.23661175
414.6272,0.009225423,0.082514473,0.115659467,0.138503792,0.153368788,0.157173907,0.228742449
415.1093,0.013581879,0.076755042,0.115239147,0.143405045,0.150658788,0.158854507,0.220655501
415.5914,0.019265245,0.075689047,0.116506747,0.150320887,0.149832407,0.161905552,0.21323594
416.0735,0.025014884,0.07852499,0.118771247,0.15770951,0.150221141,0.166222481,0.206838551
416.5557,0.02925115,0.083639269,0.120919492,0.163442391,0.150525906,0.170794565,0.201387635
417.0378,0.030639271,0.089152368,0.12182569,0.16549587,0.149359512,0.174121791,0.196605539
417.5199,0.028502003,0.093426909,0.120705814,0.162605477,0.145772883,0.174844696,0.19221076
418.0021,0.022983563,0.095391919,0.117320341,0.154643689,0.139580985,0.172324766,0.187987174
418.4842,0.014981709,0.094667158,0.112040722,0.142649404,0.131428304,0.166934672,0.183734074
418.9663,0.005921864,0.091539121,0.10577703,0.128511756,0.122593471,0.159936056,0.179186304
419.4484,-0.002560818,0.08681383,0.09977459,0.114455714,0.114630849,0.152972507,0.173992314
419.9305,-0.008963254,0.081578227,0.095293612,0.102482229,0.108949136,0.147407054,0.167841186
420.4127,-0.012202117,0.076932617,0.093270904,0.093966963,0.106492963,0.143814794,0.160697005
420.8948,-0.01177464,0.073753444,0.094044862,0.08947873,0.107583047,0.14186698,0.153004562
421.3769,-0.007781114,0.072548213,0.097262133,0.088845661,0.111935743,0.140644591,0.145697098
421.8591,-0.000830344,0.073418373,0.101963489,0.091345672,0.118767884,0.139196437,0.139971758
422.3412,0.008118871,0.076098397,0.106849026,0.095948872,0.126929487,0.137055648,0.136924375
422.8233,0.017935296,0.080059015,0.110636476,0.101519395,0.135028568,0.13444407,0.137204354
423.3054,0.027502504,0.08464956,0.112439435,0.107002781,0.141609351,0.132101492,0.140815065
423.7876,0.035872586,0.089255639,0.112009239,0.111565602,0.145409414,0.130866926,0.147110776
424.2697,0.04236219,0.093439434,0.109757859,0.114714074,0.14567725,0.131264775,0.154991561
424.7518,0.046557915,0.097008574,0.106530456,0.116332622,0.142429607,0.133261283,0.163232314
425.2339,0.048267984,0.099992213,0.103279788,0.116646107,0.136515813,0.136286396,0.170836527
425.7161,0.047455024,0.102534004,0.100746923,0.116089146,0.129416585,0.139460535,0.177255653
426.1982,0.044225597,0.104749872,0.099289198,0.11513379,0.122855668,0.141953786,0.18238739
426.6803,0.038872043,0.106611237,0.098856013,0.114116838,0.118354062,0.143311197,0.18635577
427.1624,0.031928034,0.107904153,0.099110306,0.113133419,0.116858274,0.143602246,0.189204342
427.6446,0.024164072,0.108276419,0.099615271,0.112014415,0.118512702,0.143307961,0.190672187
428.1267,0.01648388,0.107360752,0.100026491,0.110420211,0.122630591,0.143021022,0.190188484
428.6088,0.009738039,0.104921087,0.100186636,0.107996385,0.127849342,0.143102107,0.187095428
429.0909,0.00452494,0.100964897,0.100119843,0.104555823,0.132479965,0.14346971,0.180999069
429.5731,0.00105393,0.095780839,0.099925741,0.10020193,0.134963248,0.143603553,0.172057782
430.0552,-0.00087203,0.089897993,0.099676656,0.09536867,0.134325918,0.142775997,0.161058485
430.5373,-0.001747002,0.083984292,0.099355505,0.090742073,0.13045077,0.140405077,0.149238808
431.0194,-0.002141783,0.078722969,0.098898828,0.087114475,0.124075173,0.136387574,0.137954691
431.5016,-0.002455083,0.074684872,0.098291207,0.085188707,0.116505724,0.131221197,0.128345046
431.9837,-0.002736332,0.072227726,0.097673097,0.085406878,0.10920936,0.125848941,0.121113071
432.4658,-0.002688247,0.071434084,0.097355982,0.087818349,0.103420933,0.121284831,0.116464424
432.9479,-0.001845449,0.072106493,0.097740071,0.092047657,0.099899868,0.118222232,0.114195777
433.4301,0.000142377,0.073803034,0.099131274,0.097331447,0.098830998,0.116770555,0.113837857
433.9122,0.003280445,0.075917433,0.101572703,0.102659127,0.099863898,0.116441982,0.114807308
434.3943,0.007147815,0.077771534,0.104742697,0.106960627,0.102224104,0.116350621,0.116489054
434.8764,0.010996937,0.078704186,0.107983303,0.109320843,0.104877924,0.115541975,0.118261376
435.3586,0.013980551,0.078137974,0.11043487,0.109152463,0.106725152,0.113308692,0.119502253
435.8407,0.015406785,0.075626267,0.11124335,0.106292182,0.106809727,0.109379128,0.119624393
436.3228,0.014917697,0.070898144,0.109755496,0.100987291,0.104517911,0.103928647,0.118168314
436.8049,0.012531713,0.063903488,0.105658773,0.093803416,0.099719261,0.097445463,0.114929311
437.287,0.008559795,0.054868427,0.099019969,0.085477249,0.092801456,0.090546665,0.110056486
437.7692,0.003489531,0.044350901,0.090267876,0.076789509,0.084598299,0.083837744,0.104076433
438.2513,-0.002116276,0.033242802,0.080117752,0.068446659,0.076204829,0.077834223,0.097795553
438.7334,-0.007641467,0.02270463,0.069495305,0.061023794,0.06874882,0.07295437,0.092113039
439.2155,-0.012416631,0.013990482,0.059427379,0.054922134,0.063153579,0.069517425,0.087793359
439.6977,-0.015723912,0.008201088,0.050919284,0.050375282,0.059967761,0.067734181,0.085283433
440.1798,-0.016880417,0.006031338,0.044795165,0.047473271,0.059301191,0.067668431,0.084639095
440.6619,-0.015379166,0.007604768,0.041564073,0.046217592,0.060897585,0.069202355,0.085596256
441.144,-0.011051292,0.0124559,0.041330364,0.046568743,0.064297189,0.072025142,0.087738556
441.6262,-0.00417148,0.019671743,0.043794322,0.048473047,0.069015603,0.075683822,0.090675354
442.1083,0.004538278,0.028130518,0.048321968,0.051838324,0.074640773,0.079676946,0.094130251
442.5904,0.014021314,0.036753004,0.054073427,0.056477251,0.080817554,0.083558002,0.097911068
443.0725,0.023096458,0.044686927,0.060146353,0.062031865,0.087146854,0.087012675,0.101800723
443.5547,0.030703784,0.051374902,0.065722193,0.0679428,0.093092457,0.089879347,0.105458749
444.0368,0.036104074,0.056517304,0.070165652,0.07347081,0.097962151,0.092109266,0.108398173
444.5189,0.03895884,0.059981135,0.073078151,0.077809462,0.101014218,0.093699814,0.110071566
445.001,0.039272238,0.061732374,0.074286792,0.080247521,0.101641508,0.094628029,0.11002334
445.4832,0.03725205,0.061822361,0.073809049,0.080350648,0.099572598,0.094821307,0.108044
445.9653,0.033185546,0.060439123,0.071800854,0.078093632,0.094987263,0.094174406,0.104258473
446.4474,0.027387224,0.057969399,0.068537276,0.073905043,0.088506033,0.092601643,0.09911035
446.9295,0.020236065,0.055009446,0.064397285,0.06859314,0.081043511,0.090099819,0.093254093
447.4117,0.012243361,0.052274691,0.059851534,0.063164917,0.073577484,0.086791345,0.087388093
447.8938,0.004094892,0.050418995,0.055427638,0.058579636,0.066914901,0.082936555,0.08209421
448.3759,-0.003399955,0.049812909,0.051640591,0.055513066,0.061528368,0.078896754,0.077731593
448.858,-0.009440294,0.050401154,0.048912836,0.05420603,0.057526875,0.075078045,0.074425978
449.3401,-0.013396561,0.051716342,0.047522718,0.054469323,0.054766848,0.071878382,0.072154344
449.8223,-0.014941441,0.05306601,0.047577497,0.055814312,0.05303167,0.069648192,0.070858234
450.3044,-0.014103899,0.053825925,0.049030762,0.05766767,0.052194315,0.068657115,0.070525674
450.7865,-0.011253342,0.053683945,0.051695296,0.05954567,0.052257788,0.069037824,0.071180581
451.2686,-0.007025151,0.052728349,0.055261615,0.061147982,0.053282209,0.070712,0.072795582
451.7508,-0.002209718,0.051324885,0.05929257,0.062317294,0.05523376,0.073312849,0.075165217
452.2329,0.002382875,0.04987293,0.063242925,0.062935903,0.057857781,0.076168556,0.077830108
452.715,0.006060959,0.048579539,0.066502207,0.062827935,0.060648558,0.078385819,0.080097362
453.1971,0.008362681,0.047352788,0.068484965,0.06173563,0.062937784,0.079042483,0.081171713
453.6793,0.009120236,0.045856406,0.068730011,0.05938462,0.064055614,0.077442376,0.080353753
454.1614,0.008468939,0.043679647,0.067007709,0.0556179,0.063513436,0.073357951,0.077254664
454.6435,0.006792091,0.040528079,0.063374227,0.050519296,0.061113313,0.067141874,0.071937924
455.1256,0.004609051,0.036354317,0.058159178,0.044463041,0.056963725,0.059660904,0.06494286
455.6078,0.002408299,0.031354102,0.051863625,0.038035897,0.051381198,0.052032825,0.057150425
456.0899,0.000468025,0.025829576,0.044997358,0.0318457,0.044731958,0.045255642,0.049525973
456.572,-0.001271927,0.020003536,0.03791641,0.026294223,0.03729146,0.039870812,0.042833409
457.0541,-0.003222428,0.013880797,0.030741499,0.021420981,0.029198321,0.035795138,0.037423831
457.5363,-0.00600164,0.007270078,0.023402724,0.016905301,0.020535519,0.03240369,0.033196959
458.0184,-0.010190301,-5.45E-05,0.01579386,0.012228862,0.011483115,0.028818506,0.029715896
458.5005,-0.016057994,-0.008125052,0.00795003,0.006925085,0.00246406,0.024293978,0.026437174
458.9826,-0.023374321,-0.016602837,0.000180977,0.000825324,-0.00580672,0.018554789,0.022954788
459.4648,-0.031379309,-0.024745823,-0.006925755,-0.005806222,-0.012414603,0.011946321,0.019186365
459.9469,-0.038941201,-0.03155514,-0.012632206,-0.012299638,-0.016460439,0.005343233,0.015423512
460.429,-0.044856577,-0.036053398,-0.016277607,-0.017775763,-0.01734345,-0.000163806,0.012231955
460.9111,-0.048175872,-0.037567509,-0.017492805,-0.021418821,-0.014975719,-0.003648882,0.010226504
461.3933,-0.048432445,-0.035901689,-0.016318043,-0.022714995,-0.009843038,-0.004641096,0.009836587
461.8754,-0.045685718,-0.031321798,-0.013150086,-0.021546275,-0.002850242,-0.003202269,0.011161772
462.3575,-0.040408952,-0.024402771,-0.008583914,-0.018147036,0.004959703,0.000193412,0.013972982
462.8396,-0.033302044,-0.015841376,-0.00322485,-0.012972898,0.012694106,0.004878567,0.01782925
463.3218,-0.025137479,-0.006341672,0.002402112,-0.006590529,0.019746577,0.010175017,0.022221308
463.8039,-0.016668051,0.003415334,0.007864407,0.000408233,0.025785308,0.015496205,0.026703429
464.286,-0.008635825,0.012698959,0.012714991,0.007388922,0.030571227,0.020312094,0.030902348
464.7681,-0.001777721,0.020708247,0.016426676,0.013687582,0.033806791,0.024106388,0.034491195
465.2503,0.003195175,0.026623129,0.018389501,0.0186265,0.035067423,0.026353447,0.03712506
465.7324,0.00568719,0.029771068,0.018027455,0.021605711,0.033894449,0.026592181,0.038419054
466.2145,0.005366403,0.029852812,0.0149999,0.022232253,0.030013083,0.024575383,0.03799699
466.6967,0.002322493,0.027131452,0.009432804,0.020467643,0.023601421,0.020457557,0.035641763
467.1788,-0.002839394,0.022471633,0.002050585,0.016720383,0.015465286,0.014909082,0.031487806
467.6609,-0.009036694,0.017178099,-0.005851628,0.011829869,0.007013403,0.009086071,0.026174507
468.143,-0.014907002,0.012665041,-0.012654339,0.006911123,-1.19E-05,0.004405721,0.020836432
468.6251,-0.019105093,0.010080685,-0.016779833,0.003110897,-0.003960714,0.002197028,0.016886967
469.1073,-0.02060654,0.010033372,-0.017077697,0.001344508,-0.003712735,0.003342223,0.015641594
469.5894,-0.018914348,0.012517814,-0.013079789,0.002126737,0.001036787,0.008044899,0.01793765
470.0715,-0.014119672,0.017041021,-0.005084895,0.005519962,0.009712208,0.015792783,0.023885075
470.5536,-0.006831975,0.022864985,0.005936466,0.011194441,0.021021247,0.02551714,0.032832914
471.0358,0.001972299,0.029240402,0.018555388,0.018538986,0.033284007,0.035882609,0.043541318
471.5179,0.01112995,0.035531602,0.03116444,0.02677846,0.044826032,0.045613746,0.054503046
472,0.019459598,0.041224644,0.042248251,0.035059875,0.054312233,0.053743428,0.064300033
472.4821,0.025914773,0.045861766,0.050614507,0.042532622,0.06093603,0.059736222,0.071891843
472.9643,0.029699574,0.048986171,0.055529659,0.048408894,0.064410209,0.063453797,0.076729529
473.4464,0.030352923,0.050153424,0.056764819,0.052051626,0.064837107,0.065025189,0.078698752
473.9285,0.027791422,0.049017252,0.054559576,0.053059419,0.062533948,0.064683115,0.077945941
474.4106,0.022295352,0.045445521,0.049523961,0.05134488,0.057904907,0.062624843,0.074698875
474.8928,0.014438092,0.039608034,0.04249673,0.047158851,0.051381756,0.058937343,0.069155675
475.3749,0.004957271,0.031966127,0.034380517,0.041034746,0.043428274,0.05358871,0.061482613
475.857,-0.005385094,0.023159731,0.025978761,0.033656893,0.034557547,0.046496813,0.051896882
476.3391,-0.015914441,0.013839293,0.01787589,0.025698048,0.025338559,0.037649055,0.040772992
476.8213,-0.026074356,0.004532081,0.010395996,0.01769945,0.016375725,0.027245772,0.028713828
477.3034,-0.035381331,-0.004391227,0.003654943,0.010037504,0.008271212,0.015814748,0.016541798
477.7855,-0.043338121,-0.012642176,-0.002322105,0.002985046,0.001577762,0.004243077,0.005214742
478.2676,-0.049380667,-0.019884838,-0.007460877,-0.003184065,-0.003244292,-0.006300026,-0.00430618
478.7498,-0.052926167,-0.02566296,-0.011557323,-0.008131126,-0.005888505,-0.014569581,-0.011220297
479.2319,-0.053528687,-0.029439384,-0.014285155,-0.011472495,-0.006263646,-0.019532801,-0.01503049
479.714,-0.051079782,-0.030761093,-0.015301864,-0.012893665,-0.004542631,-0.020654465,-0.0156414
480.1961,-0.045942816,-0.029458388,-0.014389665,-0.012288008,-0.00116532,-0.018070236,-0.013360495
480.6783,-0.038925688,-0.025769412,-0.011562078,-0.00983346,0.003224747,-0.012567141,-0.008806314
481.1604,-0.031084571,-0.020322882,-0.007089159,-0.005964532,0.007894823,-0.005379321,-0.002755185
481.6425,-0.023440741,-0.013986266,-0.001456971,-0.001255086,0.012143285,0.002126353,0.004000257
482.1246,-0.016728353,-0.007656579,0.004705737,0.00372569,0.015408328,0.008764639,0.010738984
482.6068,-0.011273364,-0.002067901,0.010687609,0.008510236,0.017331539,0.013752098,0.016839922
483.0889,-0.007037329,0.002327229,0.015756152,0.012770721,0.017792521,0.016790515,0.02179023
483.571,-0.003791602,0.005374196,0.019226254,0.016278606,0.01689611,0.01800532,0.025192491
484.0531,-0.001335583,0.007144449,0.02055382,0.018839263,0.014916507,0.017782994,0.026795477
484.5352,0.000340116,0.007816577,0.019437024,0.020229354,0.012210473,0.016574976,0.026522169
485.0174,0.001015906,0.007576404,0.015903772,0.020204097,0.009123343,0.014750521,0.024482988
485.4995,0.000342475,0.006573465,0.010336854,0.01856446,0.00592515,0.012529352,0.020953456
485.9816,-0.001966395,0.004943672,0.003430038,0.015283648,0.002794887,0.010006591,0.016336596
486.4637,-0.005938564,0.002865994,-0.003926174,0.010614424,-0.000147787,0.007230058,0.01111134
486.9459,-0.01122817,0.000604501,-0.010793712,0.00513733,-0.002777559,0.004289288,0.005797673
487.428,-0.017146105,-0.001494607,-0.016352441,-0.000313709,-0.004912063,0.001366783,0.000919236
487.9101,-0.02280984,-0.003058914,-0.020023549,-0.004815002,-0.006285359,-0.001254005,-0.003025755
488.3922,-0.027359166,-0.003774474,-0.021539846,-0.007576245,-0.006585597,-0.003236815,-0.005603844
488.8744,-0.03013738,-0.003443992,-0.020925216,-0.008119193,-0.005531744,-0.004261339,-0.006487796
489.3565,-0.030783484,-0.001996504,-0.018404568,-0.006367079,-0.00296578,-0.004087504,-0.005495967
489.8386,-0.029223711,0.000551972,-0.014289666,-0.002613032,0.001077478,-0.002595353,-0.002622292
490.3207,-0.025609182,0.004150712,-0.008899614,0.002592549,0.006353875,0.000205789,0.001948894
490.8029,-0.020252266,0.008733789,-0.002547636,0.008594457,0.012449196,0.004186048,0.007848681
491.285,-0.013589599,0.014189135,0.004409545,0.014769739,0.018860886,0.009111042,0.014558571
491.7671,-0.006175571,0.020292759,0.011510322,0.020617269,0.025094788,0.014664833,0.021473607
492.2492,0.001324299,0.026642537,0.018163224,0.025780726,0.030732861,0.020467072,0.027985962
492.7314,0.008174265,0.032649665,0.023705602,0.030033203,0.035458244,0.026095701,0.033569464
493.2135,0.01365507,0.037607335,0.027529809,0.033232926,0.039035599,0.031104736,0.037842204
493.6956,0.017181124,0.040829342,0.029237477,0.0352926,0.041275648,0.035046627,0.040592344
494.1777,0.018413979,0.041819953,0.02875172,0.036156783,0.042020135,0.037497754,0.041767444
494.6599,0.017337407,0.04041746,0.026352895,0.035811599,0.041173104,0.038112917,0.041451382
495.142,0.014251716,0.036850582,0.02260301,0.034292832,0.038765145,0.036684244,0.039823261
495.6241,0.009708437,0.031689075,0.018212072,0.03170497,0.035028323,0.03322603,0.03713381
496.1062,0.004395146,0.025707141,0.013879537,0.028234456,0.03042311,0.028032662,0.033683168
496.5883,-0.000982782,0.019705678,0.010169747,0.024155276,0.025588841,0.021690655,0.02980517
497.0705,-0.005797316,0.014361469,0.007446798,0.01982121,0.021213019,0.015010327,0.025855213
497.5526,-0.00956026,0.010132634,0.005872522,0.015642347,0.017859764,0.008880298,0.022189062
498.0347,-0.011950366,0.007240868,0.005449293,0.012035516,0.015821332,0.004082342,0.019137209
498.5168,-0.012829202,0.005708317,0.006078849,0.009357529,0.015049839,0.001115883,0.016972277
498.999,-0.012238157,0.005422083,0.007601814,0.007835513,0.015206087,9.71E-05,0.015874145
499.4811,-0.010387735,0.006193448,0.009819217,0.007522712,0.015811279,0.000763707,0.015903814
499.9632,-0.007627183,0.007788483,0.012479552,0.008284419,0.016431071,0.002582268,0.016985971
500.4454,-0.004395157,0.009929947,0.015268688,0.009837252,0.016817673,0.004921835,0.018907023
500.9275,-0.00115263,0.012288588,0.017816854,0.011813072,0.01694788,0.007228855,0.021331275
501.4096,0.001689158,0.014486308,0.01973467,0.01384375,0.016956933,0.009143914,0.023836528
501.8917,0.003826266,0.016129584,0.020671382,0.015625198,0.017006118,0.010524891,0.025967068
502.3738,0.005095819,0.016874412,0.020391036,0.016959506,0.017162378,0.011389315,0.027313284
